X [],ES: EMG 1->Filter->Subset->RMS [],GMax: EMG 2->Filter->Subset->RMS [],BF: EMG 3->Filter->Subset->RMS [],ST: EMG 4->Filter->Subset->RMS [],URA: EMG 5->Filter->Subset->RMS [],LRA: EMG 6->Filter->Subset->RMS [],EO: EMG 7->Filter->Subset->RMS [],IL: EMG 8->Filter->Subset->RMS [],RF: EMG 9->Filter->Subset->RMS []
0.000000000000 ,0.000003366520 ,0.000001630720 ,0.000001144870 ,0.000007581260 ,0.000000708209 ,0.000000769428 ,0.000002024330 ,0.000001193580 ,0.000001690070
0.010323500000 ,0.000003638430 ,0.000002435240 ,0.000001680450 ,0.000008500390 ,0.000000811192 ,0.000000986804 ,0.000002081830 ,0.000001524320 ,0.000002186380
0.020647100000 ,0.000002587770 ,0.000002339600 ,0.000003312890 ,0.000004498080 ,0.000000678526 ,0.000001057290 ,0.000000757927 ,0.000001369410 ,0.000001964100
0.030970600000 ,0.000004114880 ,0.000001669570 ,0.000004462130 ,0.000003549940 ,0.000000690074 ,0.000001233480 ,0.000001145360 ,0.000001186400 ,0.000001962230
0.041294100000 ,0.000007273380 ,0.000002741020 ,0.000004715680 ,0.000005425820 ,0.000000771423 ,0.000001095060 ,0.000001474920 ,0.000001254950 ,0.000001624580
0.051617600000 ,0.000006964610 ,0.000003216370 ,0.000003950670 ,0.000006708450 ,0.000000999988 ,0.000000824577 ,0.000001831430 ,0.000001369330 ,0.000001362100
0.061941200000 ,0.000003584830 ,0.000002494830 ,0.000005510920 ,0.000013095200 ,0.000000810430 ,0.000000797973 ,0.000001851300 ,0.000001438710 ,0.000001404530
0.072264700000 ,0.000004209490 ,0.000002106090 ,0.000008599790 ,0.000016677900 ,0.000000673521 ,0.000000892700 ,0.000001728460 ,0.000001899440 ,0.000001671090
0.082588200000 ,0.000004305970 ,0.000002126030 ,0.000007072430 ,0.000012626800 ,0.000000744606 ,0.000000952358 ,0.000001810030 ,0.000001851890 ,0.000001775630
0.092911800000 ,0.000004172080 ,0.000001850780 ,0.000002945720 ,0.000008371230 ,0.000000879673 ,0.000000946028 ,0.000001463420 ,0.000001675830 ,0.000001962610
0.103235000000 ,0.000003183060 ,0.000001983970 ,0.000004273870 ,0.000007807080 ,0.000000812658 ,0.000001287170 ,0.000000949560 ,0.000001781780 ,0.000002225850
0.113559000000 ,0.000003716180 ,0.000002072580 ,0.000005105880 ,0.000009551350 ,0.000000772263 ,0.000001246820 ,0.000001059590 ,0.000001549240 ,0.000001828550
0.123882000000 ,0.000003308570 ,0.000001365680 ,0.000005762710 ,0.000010645600 ,0.000000734244 ,0.000001065890 ,0.000001639500 ,0.000001279370 ,0.000001561600
0.134206000000 ,0.000002362120 ,0.000001354190 ,0.000006975230 ,0.000010934800 ,0.000000725924 ,0.000001091240 ,0.000001633260 ,0.000002319670 ,0.000001475610
0.144529000000 ,0.000002969240 ,0.000001880870 ,0.000006321670 ,0.000010651300 ,0.000000946910 ,0.000000917595 ,0.000001220940 ,0.000002605520 ,0.000001723430
0.154853000000 ,0.000003420460 ,0.000001791460 ,0.000004763360 ,0.000012531300 ,0.000001027560 ,0.000000677290 ,0.000001012900 ,0.000001824340 ,0.000001866620
0.165176000000 ,0.000003673490 ,0.000001274520 ,0.000005409360 ,0.000013507500 ,0.000001057070 ,0.000000711579 ,0.000000806489 ,0.000001468770 ,0.000001880580
0.175500000000 ,0.000003776320 ,0.000001227090 ,0.000009778450 ,0.000009079250 ,0.000001131170 ,0.000000841550 ,0.000001116230 ,0.000001607690 ,0.000001816870
0.185824000000 ,0.000003410310 ,0.000001759040 ,0.000012182400 ,0.000006554480 ,0.000000929530 ,0.000000767713 ,0.000001157480 ,0.000001857450 ,0.000001401790
0.196147000000 ,0.000003305430 ,0.000001871200 ,0.000010571100 ,0.000005483940 ,0.000000757076 ,0.000000837918 ,0.000001060010 ,0.000001855470 ,0.000001674550
0.206471000000 ,0.000004468240 ,0.000001680700 ,0.000009408380 ,0.000004925990 ,0.000001172210 ,0.000000915080 ,0.000001167700 ,0.000001675980 ,0.000001649040
0.216794000000 ,0.000004312430 ,0.000001860690 ,0.000007965300 ,0.000008597830 ,0.000001619360 ,0.000001120040 ,0.000001206190 ,0.000001826640 ,0.000001478410
0.227118000000 ,0.000004670200 ,0.000001691810 ,0.000015006400 ,0.000009689420 ,0.000003518800 ,0.000001297950 ,0.000001320650 ,0.000001715350 ,0.000001780150
0.237441000000 ,0.000006429450 ,0.000002151880 ,0.000017608700 ,0.000009197990 ,0.000003790450 ,0.000001215370 ,0.000001285640 ,0.000001303270 ,0.000001630520
0.247765000000 ,0.000005286320 ,0.000002747230 ,0.000013753200 ,0.000007368330 ,0.000003239710 ,0.000001118880 ,0.000001042850 ,0.000001067370 ,0.000002101400
0.258088000000 ,0.000002469090 ,0.000002477350 ,0.000010434300 ,0.000002704870 ,0.000003007630 ,0.000001139480 ,0.000000741974 ,0.000001056290 ,0.000002138750
0.268412000000 ,0.000003247370 ,0.000001818500 ,0.000006149080 ,0.000003602120 ,0.000002082950 ,0.000001309430 ,0.000000757451 ,0.000001530510 ,0.000001959450
0.278735000000 ,0.000003162650 ,0.000001767940 ,0.000004849040 ,0.000004088170 ,0.000002035330 ,0.000001259900 ,0.000001441040 ,0.000002652200 ,0.000002196840
0.289059000000 ,0.000002704640 ,0.000001763110 ,0.000003376480 ,0.000004824600 ,0.000001501130 ,0.000000951515 ,0.000001653580 ,0.000002605080 ,0.000001948390
0.299382000000 ,0.000002659890 ,0.000001349120 ,0.000002872580 ,0.000007270060 ,0.000001325030 ,0.000000967068 ,0.000001667120 ,0.000002128550 ,0.000001703240
0.309706000000 ,0.000003965130 ,0.000001769170 ,0.000003132420 ,0.000010081300 ,0.000001003870 ,0.000001157440 ,0.000001587540 ,0.000001938050 ,0.000001879080
0.320029000000 ,0.000004265940 ,0.000001874300 ,0.000003061270 ,0.000012251900 ,0.000000814380 ,0.000001111490 ,0.000001527470 ,0.000001424120 ,0.000002054670
0.330353000000 ,0.000003346010 ,0.000001908520 ,0.000002463330 ,0.000011991800 ,0.000000622109 ,0.000000807606 ,0.000001906630 ,0.000001639740 ,0.000001820780
0.340676000000 ,0.000003123550 ,0.000002540460 ,0.000003817540 ,0.000009215910 ,0.000000553283 ,0.000000809700 ,0.000002380620 ,0.000001591930 ,0.000001761750
0.351000000000 ,0.000003007670 ,0.000002146610 ,0.000004895410 ,0.000006101720 ,0.000000727919 ,0.000000957384 ,0.000002439790 ,0.000001715740 ,0.000002430950
0.361324000000 ,0.000002834980 ,0.000002274480 ,0.000007190800 ,0.000003960120 ,0.000000875880 ,0.000001039590 ,0.000001915170 ,0.000001436430 ,0.000003260660
0.371647000000 ,0.000003368620 ,0.000002285180 ,0.000007233660 ,0.000003246920 ,0.000000765274 ,0.000000988524 ,0.000001941690 ,0.000000910830 ,0.000002950540
0.381971000000 ,0.000004386950 ,0.000001653090 ,0.000004327100 ,0.000005824850 ,0.000000805236 ,0.000000719064 ,0.000001738840 ,0.000001833300 ,0.000002005720
0.392294000000 ,0.000004721330 ,0.000002522530 ,0.000004300170 ,0.000006049870 ,0.000000995176 ,0.000000981366 ,0.000001574190 ,0.000001960390 ,0.000001564780
0.402618000000 ,0.000004843010 ,0.000002752730 ,0.000004481320 ,0.000007546690 ,0.000000933969 ,0.000001077250 ,0.000001715920 ,0.000001388860 ,0.000001742770
0.412941000000 ,0.000005412790 ,0.000003148880 ,0.000006307770 ,0.000008712920 ,0.000000900434 ,0.000000782289 ,0.000001231340 ,0.000001742170 ,0.000002277730
0.423265000000 ,0.000004747760 ,0.000003243560 ,0.000007233020 ,0.000010056100 ,0.000000845095 ,0.000000746732 ,0.000000864637 ,0.000001663860 ,0.000001876360
0.433588000000 ,0.000003865300 ,0.000002429840 ,0.000013088400 ,0.000009771760 ,0.000000788522 ,0.000000899366 ,0.000000783218 ,0.000001570060 ,0.000001250440
0.443912000000 ,0.000004077570 ,0.000001651080 ,0.000014719600 ,0.000007070180 ,0.000000826421 ,0.000000962608 ,0.000001429750 ,0.000002445620 ,0.000002427090
0.454235000000 ,0.000003829750 ,0.000001697030 ,0.000008679620 ,0.000006935510 ,0.000000871679 ,0.000000862381 ,0.000002238620 ,0.000002233820 ,0.000003265650
0.464559000000 ,0.000003403880 ,0.000001884110 ,0.000004870200 ,0.000007211130 ,0.000000897914 ,0.000000722628 ,0.000002203280 ,0.000001050660 ,0.000002487420
0.474882000000 ,0.000006059890 ,0.000001548080 ,0.000005246830 ,0.000009583660 ,0.000000995255 ,0.000000719852 ,0.000001684150 ,0.000001187050 ,0.000001078280
0.485206000000 ,0.000006124300 ,0.000002296940 ,0.000005670920 ,0.000008415470 ,0.000000999766 ,0.000000803253 ,0.000001925500 ,0.000002348310 ,0.000001869270
0.495529000000 ,0.000003601000 ,0.000002783750 ,0.000005535850 ,0.000006291120 ,0.000000889517 ,0.000001174050 ,0.000001962330 ,0.000002526180 ,0.000002216580
0.505853000000 ,0.000003931640 ,0.000002300400 ,0.000004681850 ,0.000009568750 ,0.000000901646 ,0.000001119930 ,0.000002076370 ,0.000001852960 ,0.000002221030
0.516176000000 ,0.000003304330 ,0.000001394370 ,0.000003392780 ,0.000015041100 ,0.000000697218 ,0.000000771497 ,0.000001965230 ,0.000001914510 ,0.000002214730
0.526500000000 ,0.000002544660 ,0.000001234070 ,0.000005641850 ,0.000014451900 ,0.000000680097 ,0.000000810795 ,0.000002199930 ,0.000003203910 ,0.000001815320
0.536824000000 ,0.000002628510 ,0.000001624200 ,0.000006450030 ,0.000006900970 ,0.000000843356 ,0.000000762712 ,0.000002510120 ,0.000003525050 ,0.000001937900
0.547147000000 ,0.000003535140 ,0.000001777600 ,0.000004037920 ,0.000004912420 ,0.000000868405 ,0.000001059990 ,0.000001904050 ,0.000002236290 ,0.000002031200
0.557471000000 ,0.000004413900 ,0.000002282120 ,0.000003187030 ,0.000010799800 ,0.000000866614 ,0.000001117130 ,0.000001952290 ,0.000001381840 ,0.000001936630
0.567794000000 ,0.000004132910 ,0.000002637150 ,0.000003483610 ,0.000012486700 ,0.000001128230 ,0.000000895322 ,0.000002876550 ,0.000001848020 ,0.000001848580
0.578118000000 ,0.000003217520 ,0.000002410150 ,0.000004856060 ,0.000009879650 ,0.000001005620 ,0.000001141200 ,0.000002905380 ,0.000001895690 ,0.000001389380
0.588441000000 ,0.000002635490 ,0.000001973640 ,0.000005513630 ,0.000008683640 ,0.000000790673 ,0.000001176550 ,0.000002513960 ,0.000001328750 ,0.000001365300
0.598765000000 ,0.000002740330 ,0.000002367720 ,0.000006748690 ,0.000009722040 ,0.000001050600 ,0.000000974778 ,0.000002207530 ,0.000001966390 ,0.000002167750
0.609088000000 ,0.000003350830 ,0.000002170210 ,0.000005961160 ,0.000009976310 ,0.000000986783 ,0.000000873130 ,0.000001371100 ,0.000002021630 ,0.000002491820
0.619412000000 ,0.000002954900 ,0.000001476500 ,0.000003298480 ,0.000008804960 ,0.000000858244 ,0.000000786915 ,0.000001848020 ,0.000002890610 ,0.000002082800
0.629735000000 ,0.000002352570 ,0.000002244390 ,0.000007082550 ,0.000009380460 ,0.000000835104 ,0.000001046710 ,0.000002183260 ,0.000003307600 ,0.000002373720
0.640059000000 ,0.000002243660 ,0.000002081930 ,0.000007894510 ,0.000008219120 ,0.000001006650 ,0.000001222050 ,0.000002068840 ,0.000002500140 ,0.000002485620
0.650382000000 ,0.000002585370 ,0.000004003410 ,0.000005818090 ,0.000010264700 ,0.000001057870 ,0.000001101850 ,0.000001895100 ,0.000002564190 ,0.000001860610
0.660706000000 ,0.000002433530 ,0.000004976820 ,0.000004183470 ,0.000010785600 ,0.000000871613 ,0.000000941900 ,0.000002667820 ,0.000003282920 ,0.000001755330
0.671029000000 ,0.000001846110 ,0.000004604560 ,0.000002562760 ,0.000009112740 ,0.000000734198 ,0.000000909932 ,0.000003574850 ,0.000003771470 ,0.000001832410
0.681353000000 ,0.000002173130 ,0.000003112160 ,0.000002746830 ,0.000010135600 ,0.000000622049 ,0.000000827619 ,0.000003194530 ,0.000003485200 ,0.000001789780
0.691676000000 ,0.000003056540 ,0.000001290840 ,0.000004029910 ,0.000009871290 ,0.000001067380 ,0.000000931324 ,0.000002078410 ,0.000002807570 ,0.000002068590
0.702000000000 ,0.000003513270 ,0.000001655180 ,0.000005599570 ,0.000009644200 ,0.000001287540 ,0.000001104530 ,0.000001952180 ,0.000002492680 ,0.000002007210
0.712324000000 ,0.000002964160 ,0.000002309870 ,0.000005324330 ,0.000007860600 ,0.000001441950 ,0.000001169500 ,0.000002626300 ,0.000002315860 ,0.000001766430
0.722647000000 ,0.000002452030 ,0.000002500620 ,0.000005255130 ,0.000016656400 ,0.000002906140 ,0.000001542700 ,0.000002533430 ,0.000001737980 ,0.000001919990
0.732971000000 ,0.000003242680 ,0.000002069390 ,0.000005376690 ,0.000019178800 ,0.000003683910 ,0.000001629480 ,0.000001895720 ,0.000002021570 ,0.000002140040
0.743294000000 ,0.000003642460 ,0.000001615930 ,0.000004724570 ,0.000013378100 ,0.000003589080 ,0.000001181280 ,0.000001462620 ,0.000002647290 ,0.000002321510
0.753618000000 ,0.000003065250 ,0.000002490930 ,0.000006360050 ,0.000009697940 ,0.000003362870 ,0.000001182430 ,0.000001483240 ,0.000002331590 ,0.000002177270
0.763941000000 ,0.000004218500 ,0.000002565670 ,0.000006247700 ,0.000006592690 ,0.000002243800 ,0.000001123950 ,0.000001982550 ,0.000002175620 ,0.000002457880
0.774265000000 ,0.000004874590 ,0.000003167930 ,0.000004492520 ,0.000006868490 ,0.000001919470 ,0.000000816433 ,0.000001958090 ,0.000001973480 ,0.000002223550
0.784588000000 ,0.000004601680 ,0.000003441740 ,0.000004203040 ,0.000016190500 ,0.000001278360 ,0.000000620831 ,0.000001374770 ,0.000001375210 ,0.000001871990
0.794912000000 ,0.000004068570 ,0.000002965910 ,0.000004528140 ,0.000020904800 ,0.000001039960 ,0.000000920267 ,0.000001074440 ,0.000001629270 ,0.000001908110
0.805235000000 ,0.000002921610 ,0.000002092650 ,0.000006471840 ,0.000017178300 ,0.000000988639 ,0.000000964048 ,0.000001289360 ,0.000002012350 ,0.000001172690
0.815559000000 ,0.000003226650 ,0.000001522060 ,0.000006789270 ,0.000013005600 ,0.000000744686 ,0.000000600186 ,0.000001498080 ,0.000002127550 ,0.000001562350
0.825882000000 ,0.000002647660 ,0.000002019080 ,0.000004609960 ,0.000012651000 ,0.000000576761 ,0.000000788281 ,0.000001363530 ,0.000001749170 ,0.000001743080
0.836206000000 ,0.000002299840 ,0.000001949010 ,0.000003308770 ,0.000009988410 ,0.000000833408 ,0.000000999768 ,0.000001051070 ,0.000001535500 ,0.000001743910
0.846529000000 ,0.000003061590 ,0.000001954680 ,0.000004473430 ,0.000008737110 ,0.000000765569 ,0.000000948153 ,0.000001079290 ,0.000001482090 ,0.000001839700
0.856853000000 ,0.000003299500 ,0.000002102970 ,0.000004090200 ,0.000009363760 ,0.000000662591 ,0.000000778322 ,0.000001172750 ,0.000001296160 ,0.000001766260
0.867176000000 ,0.000003111850 ,0.000001833820 ,0.000002595960 ,0.000006765090 ,0.000000836328 ,0.000000832781 ,0.000001524090 ,0.000002083640 ,0.000002095600
0.877500000000 ,0.000002790330 ,0.000001349360 ,0.000004462610 ,0.000006163580 ,0.000000929806 ,0.000001001690 ,0.000001494950 ,0.000002326510 ,0.000001763530
0.887824000000 ,0.000002174340 ,0.000001536910 ,0.000004970460 ,0.000005105090 ,0.000000958204 ,0.000001003840 ,0.000002324010 ,0.000002566960 ,0.000002075960
0.898147000000 ,0.000002718120 ,0.000002566390 ,0.000003853460 ,0.000010778600 ,0.000000873226 ,0.000000872635 ,0.000003421970 ,0.000003226890 ,0.000002315220
0.908471000000 ,0.000004768560 ,0.000002358380 ,0.000003629180 ,0.000013962200 ,0.000000778071 ,0.000000787873 ,0.000002675810 ,0.000002472360 ,0.000002231120
0.918794000000 ,0.000004613000 ,0.000002160730 ,0.000003249040 ,0.000010792700 ,0.000000973464 ,0.000000723766 ,0.000002144890 ,0.000001557370 ,0.000002130960
0.929118000000 ,0.000003572020 ,0.000002108340 ,0.000002444640 ,0.000007370620 ,0.000000838801 ,0.000000637544 ,0.000002839950 ,0.000001838970 ,0.000002297760
0.939441000000 ,0.000003769580 ,0.000002367580 ,0.000002290270 ,0.000006955640 ,0.000000687143 ,0.000000768236 ,0.000002180300 ,0.000001501830 ,0.000002305020
0.949765000000 ,0.000002910170 ,0.000003452860 ,0.000003158670 ,0.000010396800 ,0.000000712660 ,0.000001337360 ,0.000001531400 ,0.000001003280 ,0.000001324140
0.960088000000 ,0.000002389670 ,0.000003059710 ,0.000005564800 ,0.000012369800 ,0.000000575804 ,0.000001362990 ,0.000001667470 ,0.000001096520 ,0.000001669680
0.970412000000 ,0.000002792350 ,0.000002296380 ,0.000005214110 ,0.000010311500 ,0.000000655056 ,0.000000971782 ,0.000002133790 ,0.000001797220 ,0.000001729250
0.980735000000 ,0.000003125510 ,0.000001849300 ,0.000002282810 ,0.000008449290 ,0.000000741267 ,0.000000912401 ,0.000002059700 ,0.000001959080 ,0.000001322800
0.991059000000 ,0.000002641040 ,0.000001872400 ,0.000002026830 ,0.000008329420 ,0.000000634772 ,0.000000844655 ,0.000001613010 ,0.000001819310 ,0.000001799210
1.001380000000 ,0.000001696340 ,0.000002428420 ,0.000001998760 ,0.000007219800 ,0.000000823965 ,0.000000786436 ,0.000001414360 ,0.000001485060 ,0.000002241300
1.011710000000 ,0.000002543190 ,0.000002006940 ,0.000002333140 ,0.000010740600 ,0.000001003270 ,0.000000869597 ,0.000000746815 ,0.000001377040 ,0.000001919120
1.022030000000 ,0.000002865350 ,0.000001538460 ,0.000002768040 ,0.000012416800 ,0.000000894114 ,0.000001021150 ,0.000001018320 ,0.000001615780 ,0.000002084950
1.032350000000 ,0.000002064830 ,0.000001263790 ,0.000002393270 ,0.000009746250 ,0.000000875853 ,0.000000887427 ,0.000001244550 ,0.000001802960 ,0.000002090780
1.042680000000 ,0.000002602650 ,0.000001325320 ,0.000002877420 ,0.000008462600 ,0.000000867990 ,0.000000725538 ,0.000001153700 ,0.000001747340 ,0.000001563350
1.053000000000 ,0.000003278530 ,0.000001514860 ,0.000003126400 ,0.000007462080 ,0.000000823419 ,0.000000988351 ,0.000000850493 ,0.000001313400 ,0.000001754330
1.063320000000 ,0.000006960830 ,0.000001476830 ,0.000001819140 ,0.000005171270 ,0.000001056990 ,0.000001093780 ,0.000000692890 ,0.000001085030 ,0.000001899380
1.073650000000 ,0.000008155960 ,0.000001952430 ,0.000000989629 ,0.000005931900 ,0.000001125510 ,0.000000859338 ,0.000000670657 ,0.000000847267 ,0.000002357200
1.083970000000 ,0.000005452820 ,0.000002946230 ,0.000002050000 ,0.000007515990 ,0.000000994002 ,0.000000780540 ,0.000000747335 ,0.000001199120 ,0.000002540790
1.094290000000 ,0.000004548550 ,0.000002822880 ,0.000002713480 ,0.000006013020 ,0.000001251080 ,0.000001371250 ,0.000000764955 ,0.000001406630 ,0.000002404970
1.104620000000 ,0.000004008620 ,0.000002675890 ,0.000002651350 ,0.000003974250 ,0.000001423680 ,0.000001360760 ,0.000000731275 ,0.000001211560 ,0.000002509350
1.114940000000 ,0.000004699220 ,0.000002283250 ,0.000001983570 ,0.000003342040 ,0.000001155600 ,0.000000876495 ,0.000001052410 ,0.000001477830 ,0.000002191410
1.125260000000 ,0.000005213350 ,0.000001634590 ,0.000001196910 ,0.000002350000 ,0.000000813979 ,0.000001229440 ,0.000001149850 ,0.000001518180 ,0.000002059790
1.135590000000 ,0.000004188740 ,0.000004273260 ,0.000001401040 ,0.000006180090 ,0.000001054120 ,0.000001582490 ,0.000001085740 ,0.000001422890 ,0.000002825150
1.145910000000 ,0.000005606390 ,0.000007221750 ,0.000001605700 ,0.000013951700 ,0.000001187630 ,0.000001721380 ,0.000001714600 ,0.000002091380 ,0.000002459040
1.156240000000 ,0.000007785520 ,0.000006942190 ,0.000002043340 ,0.000015422700 ,0.000001085730 ,0.000002400150 ,0.000002014040 ,0.000001983590 ,0.000002096110
1.166560000000 ,0.000013778300 ,0.000004569630 ,0.000005258940 ,0.000011084600 ,0.000001065710 ,0.000003276570 ,0.000001481820 ,0.000001122410 ,0.000002504220
1.176880000000 ,0.000015237200 ,0.000003297170 ,0.000006933250 ,0.000008082610 ,0.000000961605 ,0.000002834900 ,0.000001176420 ,0.000001105250 ,0.000002623580
1.187210000000 ,0.000014697100 ,0.000002744860 ,0.000006756620 ,0.000009585450 ,0.000001359510 ,0.000001796180 ,0.000001787470 ,0.000001593460 ,0.000002932820
1.197530000000 ,0.000040633000 ,0.000002613180 ,0.000004906830 ,0.000008970920 ,0.000001415920 ,0.000001606260 ,0.000001773660 ,0.000002065620 ,0.000003294230
1.207850000000 ,0.000044394900 ,0.000002447160 ,0.000001723200 ,0.000004712080 ,0.000001859120 ,0.000001260130 ,0.000001698350 ,0.000002011320 ,0.000002879700
1.218180000000 ,0.000038304600 ,0.000002524710 ,0.000002618600 ,0.000012520300 ,0.000002279050 ,0.000001326190 ,0.000001901760 ,0.000001572820 ,0.000002511420
1.228500000000 ,0.000048596900 ,0.000002059100 ,0.000003746220 ,0.000015661700 ,0.000004122210 ,0.000001466460 ,0.000001686250 ,0.000001562830 ,0.000002774000
1.238820000000 ,0.000050532500 ,0.000001795190 ,0.000004952390 ,0.000014243800 ,0.000004674230 ,0.000001434620 ,0.000001518550 ,0.000002288160 ,0.000002142530
1.249150000000 ,0.000040515000 ,0.000001790790 ,0.000008077910 ,0.000012643500 ,0.000003846380 ,0.000001234530 ,0.000001705450 ,0.000002086650 ,0.000001783690
1.259470000000 ,0.000028061000 ,0.000001830370 ,0.000008143710 ,0.000009260140 ,0.000002662830 ,0.000001012880 ,0.000002075440 ,0.000001450980 ,0.000001776710
1.269790000000 ,0.000026334300 ,0.000001667950 ,0.000005431980 ,0.000010056100 ,0.000002172550 ,0.000000997420 ,0.000002000560 ,0.000001611660 ,0.000001578740
1.280120000000 ,0.000014359700 ,0.000003123990 ,0.000006343070 ,0.000010141200 ,0.000002350770 ,0.000001017560 ,0.000001768500 ,0.000001356850 ,0.000001822490
1.290440000000 ,0.000015217600 ,0.000004086570 ,0.000007470930 ,0.000006910540 ,0.000001783670 ,0.000001261450 ,0.000001810940 ,0.000001650120 ,0.000002117640
1.300760000000 ,0.000008763840 ,0.000003874490 ,0.000005421170 ,0.000014102900 ,0.000001928120 ,0.000001363380 ,0.000001575670 ,0.000001952810 ,0.000001871680
1.311090000000 ,0.000008576050 ,0.000003054550 ,0.000005492240 ,0.000016495800 ,0.000001594960 ,0.000001128490 ,0.000001141950 ,0.000001957060 ,0.000001623230
1.321410000000 ,0.000008540890 ,0.000002217790 ,0.000014266700 ,0.000019001000 ,0.000001200040 ,0.000000876315 ,0.000001113150 ,0.000002415820 ,0.000001606990
1.331740000000 ,0.000007932970 ,0.000002568620 ,0.000017703500 ,0.000021062200 ,0.000001000940 ,0.000001135990 ,0.000001156490 ,0.000002282420 ,0.000001636330
1.342060000000 ,0.000006320590 ,0.000003741070 ,0.000013184400 ,0.000017943100 ,0.000000974025 ,0.000001999300 ,0.000001065140 ,0.000001356750 ,0.000002185320
1.352380000000 ,0.000006072920 ,0.000004054360 ,0.000006146210 ,0.000014814900 ,0.000001549400 ,0.000003822890 ,0.000001252270 ,0.000001045770 ,0.000002314890
1.362710000000 ,0.000019988500 ,0.000002941220 ,0.000002149440 ,0.000015364500 ,0.000001563800 ,0.000003852310 ,0.000001278350 ,0.000001270460 ,0.000002761780
1.373030000000 ,0.000025643700 ,0.000002545470 ,0.000002562190 ,0.000021910900 ,0.000001356290 ,0.000002459600 ,0.000001231510 ,0.000002820620 ,0.000003132090
1.383350000000 ,0.000017163000 ,0.000004269050 ,0.000002471040 ,0.000021023900 ,0.000001458880 ,0.000002821240 ,0.000001446520 ,0.000003942830 ,0.000003242840
1.393680000000 ,0.000009100350 ,0.000005135510 ,0.000011933300 ,0.000015203400 ,0.000001283800 ,0.000002410870 ,0.000002363610 ,0.000005944350 ,0.000002864500
1.404000000000 ,0.000013515100 ,0.000004616120 ,0.000021603800 ,0.000020530200 ,0.000001299890 ,0.000001602560 ,0.000007297680 ,0.000011115500 ,0.000001773180
1.414320000000 ,0.000014762400 ,0.000002896060 ,0.000021393400 ,0.000022812600 ,0.000001631560 ,0.000001686740 ,0.000009741220 ,0.000013158200 ,0.000002600250
1.424650000000 ,0.000016187000 ,0.000001601440 ,0.000015718300 ,0.000016349500 ,0.000001934400 ,0.000001961530 ,0.000012738600 ,0.000016752600 ,0.000003085380
1.434970000000 ,0.000019380100 ,0.000001651840 ,0.000011371100 ,0.000012171700 ,0.000001608600 ,0.000001932100 ,0.000011278800 ,0.000015093600 ,0.000002876370
1.445290000000 ,0.000018757000 ,0.000002369170 ,0.000005152550 ,0.000011507800 ,0.000001052430 ,0.000001342570 ,0.000005244020 ,0.000009233680 ,0.000003407680
1.455620000000 ,0.000021601100 ,0.000003162420 ,0.000004479340 ,0.000013302700 ,0.000000918318 ,0.000001416850 ,0.000005670010 ,0.000008503890 ,0.000002773000
1.465940000000 ,0.000033546700 ,0.000002663420 ,0.000005284590 ,0.000013226000 ,0.000001053850 ,0.000001329910 ,0.000005938460 ,0.000005562050 ,0.000001684130
1.476260000000 ,0.000034457300 ,0.000002813000 ,0.000005670330 ,0.000012456500 ,0.000002040430 ,0.000002545670 ,0.000006611360 ,0.000005678580 ,0.000002186940
1.486590000000 ,0.000023548300 ,0.000002743760 ,0.000005073620 ,0.000013063900 ,0.000002607360 ,0.000004152550 ,0.000005367250 ,0.000004586040 ,0.000002434420
1.496910000000 ,0.000017233100 ,0.000002170790 ,0.000004636830 ,0.000008244100 ,0.000002132710 ,0.000004384610 ,0.000005128170 ,0.000006440240 ,0.000002420360
1.507240000000 ,0.000047521600 ,0.000002569260 ,0.000003133550 ,0.000003618140 ,0.000004645880 ,0.000003013200 ,0.000004909310 ,0.000005851490 ,0.000002405290
1.517560000000 ,0.000071035100 ,0.000002577290 ,0.000002710760 ,0.000004021840 ,0.000006485480 ,0.000004361790 ,0.000002132600 ,0.000004288320 ,0.000003060810
1.527880000000 ,0.000057501300 ,0.000002559670 ,0.000003085030 ,0.000007879960 ,0.000004761620 ,0.000005580560 ,0.000001713530 ,0.000004288530 ,0.000005213770
1.538210000000 ,0.000031292200 ,0.000002196510 ,0.000003674530 ,0.000023371100 ,0.000002777720 ,0.000003210750 ,0.000002696340 ,0.000003714680 ,0.000004830030
1.548530000000 ,0.000026798000 ,0.000003103950 ,0.000003377790 ,0.000024076600 ,0.000002437640 ,0.000002940800 ,0.000002617830 ,0.000004162360 ,0.000001891630
1.558850000000 ,0.000017578200 ,0.000003118910 ,0.000002627470 ,0.000011977500 ,0.000001459270 ,0.000005431070 ,0.000001229540 ,0.000003131830 ,0.000001586090
1.569180000000 ,0.000007707650 ,0.000002131400 ,0.000002641900 ,0.000008569100 ,0.000003212130 ,0.000006430710 ,0.000003018720 ,0.000002785040 ,0.000002139750
1.579500000000 ,0.000009182640 ,0.000002263720 ,0.000002281510 ,0.000007252920 ,0.000004458430 ,0.000004742180 ,0.000003290530 ,0.000002853360 ,0.000002909470
1.589820000000 ,0.000035209000 ,0.000002019090 ,0.000002786950 ,0.000006803830 ,0.000005193150 ,0.000006764200 ,0.000003731130 ,0.000002631570 ,0.000003579910
1.600150000000 ,0.000058416600 ,0.000001921340 ,0.000002798110 ,0.000011416300 ,0.000004509030 ,0.000007220460 ,0.000004655180 ,0.000002004570 ,0.000003452040
1.610470000000 ,0.000058505600 ,0.000001567960 ,0.000003339010 ,0.000011353400 ,0.000006119980 ,0.000005303450 ,0.000005754210 ,0.000002598430 ,0.000003313430
1.620790000000 ,0.000045462100 ,0.000001941850 ,0.000005114240 ,0.000011272900 ,0.000007013660 ,0.000007300770 ,0.000005626300 ,0.000004408510 ,0.000003014290
1.631120000000 ,0.000035214900 ,0.000002290180 ,0.000006067080 ,0.000015197600 ,0.000004325790 ,0.000009676970 ,0.000004375580 ,0.000004220520 ,0.000001939520
1.641440000000 ,0.000028254200 ,0.000002102930 ,0.000004956680 ,0.000012715800 ,0.000002732890 ,0.000010604100 ,0.000004399310 ,0.000003181230 ,0.000001954950
1.651760000000 ,0.000020531300 ,0.000001956490 ,0.000004332740 ,0.000022198600 ,0.000004124120 ,0.000006145670 ,0.000003547820 ,0.000002793650 ,0.000002304030
1.662090000000 ,0.000014507600 ,0.000001747960 ,0.000004994690 ,0.000034927600 ,0.000005628370 ,0.000003942800 ,0.000003217260 ,0.000002430030 ,0.000003179520
1.672410000000 ,0.000020629400 ,0.000002354050 ,0.000004449590 ,0.000031926100 ,0.000004796310 ,0.000003321720 ,0.000003399970 ,0.000002800900 ,0.000006728180
1.682740000000 ,0.000019150000 ,0.000002774860 ,0.000004111470 ,0.000030685800 ,0.000002615900 ,0.000001734300 ,0.000002387090 ,0.000002612570 ,0.000006310050
1.693060000000 ,0.000018352300 ,0.000003272710 ,0.000004478290 ,0.000033330000 ,0.000002449890 ,0.000001499520 ,0.000002251460 ,0.000002920780 ,0.000001727310
1.703380000000 ,0.000017151000 ,0.000003423150 ,0.000003685570 ,0.000028361400 ,0.000001920550 ,0.000002604950 ,0.000002306410 ,0.000002598020 ,0.000001632480
1.713710000000 ,0.000012641500 ,0.000004696780 ,0.000002101710 ,0.000059463700 ,0.000002271880 ,0.000003440460 ,0.000001787970 ,0.000003746900 ,0.000001472410
1.724030000000 ,0.000011659800 ,0.000005712320 ,0.000002755640 ,0.000065181000 ,0.000004151490 ,0.000003892930 ,0.000003286050 ,0.000004265980 ,0.000001446800
1.734350000000 ,0.000374928000 ,0.000005148290 ,0.000003468300 ,0.000035955400 ,0.000004762100 ,0.000004749750 ,0.000005569400 ,0.000003236640 ,0.000004240520
1.744680000000 ,0.000422773000 ,0.000005458310 ,0.000002733990 ,0.000040720000 ,0.000004498990 ,0.000004659780 ,0.000005794540 ,0.000004303590 ,0.000007618720
1.755000000000 ,0.000270374000 ,0.000005626080 ,0.000004394100 ,0.000082494400 ,0.000003864120 ,0.000003420830 ,0.000004223250 ,0.000005467380 ,0.000008697470
1.765320000000 ,0.000217213000 ,0.000003933290 ,0.000005892240 ,0.000087039900 ,0.000004615200 ,0.000003976600 ,0.000002717040 ,0.000005036260 ,0.000010353700
1.775650000000 ,0.000152602000 ,0.000001576960 ,0.000005512920 ,0.000053193200 ,0.000003770590 ,0.000008571030 ,0.000005537620 ,0.000010694700 ,0.000010902700
1.785970000000 ,0.000121976000 ,0.000007135920 ,0.000006540890 ,0.000045770000 ,0.000002840620 ,0.000009421970 ,0.000007387390 ,0.000014282200 ,0.000012117800
1.796290000000 ,0.000082896100 ,0.000010011900 ,0.000012347800 ,0.000067733600 ,0.000002620300 ,0.000013596000 ,0.000007829350 ,0.000012096400 ,0.000017150100
1.806620000000 ,0.000074858400 ,0.000011385100 ,0.000012029700 ,0.000066477000 ,0.000002872610 ,0.000014900700 ,0.000008464700 ,0.000013738200 ,0.000028600800
1.816940000000 ,0.000035476500 ,0.000010231200 ,0.000006155520 ,0.000038552100 ,0.000003963550 ,0.000019903600 ,0.000011526400 ,0.000014688400 ,0.000044751700
1.827260000000 ,0.000032940400 ,0.000008512650 ,0.000005316260 ,0.000016879700 ,0.000006214130 ,0.000016940600 ,0.000013720800 ,0.000010221200 ,0.000042731700
1.837590000000 ,0.000022252100 ,0.000007341610 ,0.000004480280 ,0.000030007400 ,0.000018102600 ,0.000011458800 ,0.000010972200 ,0.000010021900 ,0.000030859600
1.847910000000 ,0.000014625000 ,0.000004019390 ,0.000003670040 ,0.000028703100 ,0.000025278000 ,0.000025721700 ,0.000006423980 ,0.000011193800 ,0.000034731700
1.858240000000 ,0.000007272490 ,0.000003563040 ,0.000003638840 ,0.000008153770 ,0.000018072400 ,0.000026215800 ,0.000005738900 ,0.000008467560 ,0.000029987600
1.868560000000 ,0.000005817590 ,0.000001924350 ,0.000003247280 ,0.000003564660 ,0.000018606400 ,0.000021663300 ,0.000005756950 ,0.000006698970 ,0.000015521100
1.878880000000 ,0.000007197120 ,0.000003331180 ,0.000003243160 ,0.000003009010 ,0.000020888700 ,0.000020435400 ,0.000009085820 ,0.000006679870 ,0.000010803900
1.889210000000 ,0.000411137000 ,0.000003816300 ,0.000003595130 ,0.000013479500 ,0.000016700900 ,0.000010872700 ,0.000011763000 ,0.000005247590 ,0.000016871900
1.899530000000 ,0.000500718000 ,0.000004834480 ,0.000003391090 ,0.000015561000 ,0.000012993300 ,0.000029768900 ,0.000010010200 ,0.000006049910 ,0.000016775800
1.909850000000 ,0.000371134000 ,0.000005023690 ,0.000002943330 ,0.000009633160 ,0.000012310400 ,0.000029529400 ,0.000006478610 ,0.000010671400 ,0.000012834100
1.920180000000 ,0.000289403000 ,0.000003588110 ,0.000003332460 ,0.000008299340 ,0.000014880900 ,0.000015463200 ,0.000013110500 ,0.000021534700 ,0.000011447600
1.930500000000 ,0.000185677000 ,0.000004199570 ,0.000003440880 ,0.000008745550 ,0.000024618200 ,0.000028358200 ,0.000014580900 ,0.000025276200 ,0.000007727160
1.940820000000 ,0.000159104000 ,0.000003730420 ,0.000002306040 ,0.000008579330 ,0.000022582500 ,0.000031072200 ,0.000010325800 ,0.000024461600 ,0.000007160680
1.951150000000 ,0.000071615500 ,0.000002938710 ,0.000003424640 ,0.000007411130 ,0.000016872700 ,0.000025970000 ,0.000009359280 ,0.000019357300 ,0.000007300970
1.961470000000 ,0.000110573000 ,0.000002757330 ,0.000003509170 ,0.000006227830 ,0.000024089500 ,0.000034986200 ,0.000006128940 ,0.000013223800 ,0.000006631430
1.971790000000 ,0.000310134000 ,0.000002760330 ,0.000002411540 ,0.000014118100 ,0.000019613800 ,0.000037266000 ,0.000005187030 ,0.000015022500 ,0.000007296960
1.982120000000 ,0.000352157000 ,0.000002376300 ,0.000002639060 ,0.000015936600 ,0.000014858000 ,0.000031962300 ,0.000006859750 ,0.000011677500 ,0.000012522400
1.992440000000 ,0.000246052000 ,0.000002896070 ,0.000003370680 ,0.000010600900 ,0.000022928300 ,0.000026455100 ,0.000007946760 ,0.000018762600 ,0.000018534400
2.002760000000 ,0.000163753000 ,0.000003152870 ,0.000004776500 ,0.000007092570 ,0.000019522600 ,0.000021423300 ,0.000008182360 ,0.000019645000 ,0.000020073700
2.013090000000 ,0.000125374000 ,0.000002695410 ,0.000005864550 ,0.000004063820 ,0.000012195800 ,0.000009926210 ,0.000008855940 ,0.000016337900 ,0.000020342300
2.023410000000 ,0.000078508200 ,0.000002895520 ,0.000004541400 ,0.000002919390 ,0.000011150900 ,0.000014460400 ,0.000008137080 ,0.000016442800 ,0.000034026200
2.033740000000 ,0.000051132700 ,0.000004681780 ,0.000005406030 ,0.000002676380 ,0.000006601020 ,0.000014303200 ,0.000006549740 ,0.000010978300 ,0.000034616300
2.044060000000 ,0.000066914400 ,0.000005074190 ,0.000005563370 ,0.000002509340 ,0.000004451030 ,0.000010584400 ,0.000007664080 ,0.000018147600 ,0.000026959800
2.054380000000 ,0.000086547500 ,0.000003983720 ,0.000002605380 ,0.000002352300 ,0.000005394990 ,0.000009346160 ,0.000007221510 ,0.000022507700 ,0.000030106100
2.064710000000 ,0.000087885100 ,0.000004557210 ,0.000003244310 ,0.000002296780 ,0.000006316990 ,0.000007634830 ,0.000004803360 ,0.000017385100 ,0.000024586300
2.075030000000 ,0.000069278100 ,0.000005934250 ,0.000003178730 ,0.000017785500 ,0.000004345720 ,0.000012465400 ,0.000003853290 ,0.000022433100 ,0.000015994200
2.085350000000 ,0.000056406200 ,0.000005281710 ,0.000003480210 ,0.000065276100 ,0.000002295380 ,0.000010641700 ,0.000005412910 ,0.000021819100 ,0.000011549000
2.095680000000 ,0.000060737700 ,0.000010543900 ,0.000004922840 ,0.000069537300 ,0.000003002560 ,0.000016794500 ,0.000006727960 ,0.000033713000 ,0.000006670910
2.106000000000 ,0.000037686600 ,0.000016591900 ,0.000004865590 ,0.000039828700 ,0.000003673220 ,0.000018765300 ,0.000005485970 ,0.000033496200 ,0.000006765580
2.116320000000 ,0.000036706500 ,0.000015256600 ,0.000014042900 ,0.000035106400 ,0.000003413770 ,0.000017947600 ,0.000003603510 ,0.000014143300 ,0.000006766960
2.126650000000 ,0.000070057000 ,0.000015674500 ,0.000019566600 ,0.000033173100 ,0.000003092700 ,0.000032096200 ,0.000004791420 ,0.000018546900 ,0.000005496420
2.136970000000 ,0.000068301800 ,0.000015674800 ,0.000033217200 ,0.000054495000 ,0.000003627810 ,0.000034026300 ,0.000004673370 ,0.000027788300 ,0.000005246970
2.147290000000 ,0.000050920400 ,0.000013368900 ,0.000051114400 ,0.000071540300 ,0.000003769480 ,0.000026982800 ,0.000004181040 ,0.000029522000 ,0.000006847390
2.157620000000 ,0.000048950900 ,0.000012184300 ,0.000058118800 ,0.000074348500 ,0.000003487690 ,0.000022368100 ,0.000006933640 ,0.000018437000 ,0.000007948200
2.167940000000 ,0.000078385400 ,0.000016787300 ,0.000048478500 ,0.000058510300 ,0.000005518990 ,0.000024358700 ,0.000007413400 ,0.000008377350 ,0.000032116200
2.178260000000 ,0.000105067000 ,0.000033067400 ,0.000033262700 ,0.000058514200 ,0.000005875490 ,0.000031628900 ,0.000004349020 ,0.000015840600 ,0.000040137900
2.188590000000 ,0.000103590000 ,0.000048845200 ,0.000085424000 ,0.000072626900 ,0.000004919320 ,0.000034941800 ,0.000004225790 ,0.000017198300 ,0.000046312300
2.198910000000 ,0.000078898900 ,0.000044196600 ,0.000112025000 ,0.000064685500 ,0.000006544870 ,0.000033064400 ,0.000007721550 ,0.000012020200 ,0.000066538200
2.209240000000 ,0.000037328800 ,0.000045678800 ,0.000091971300 ,0.000054555500 ,0.000007128320 ,0.000030287300 ,0.000009999470 ,0.000012296500 ,0.000077267400
2.219560000000 ,0.000024743300 ,0.000065934700 ,0.000054385900 ,0.000044884300 ,0.000005325420 ,0.000027062800 ,0.000014364100 ,0.000020956400 ,0.000087457600
2.229880000000 ,0.000025246300 ,0.000086228000 ,0.000036392100 ,0.000047901300 ,0.000003277530 ,0.000015469500 ,0.000028462300 ,0.000026801200 ,0.000089741300
2.240210000000 ,0.000031829300 ,0.000073851300 ,0.000034392300 ,0.000051488500 ,0.000003851900 ,0.000017586000 ,0.000032494700 ,0.000034343200 ,0.000159330000
2.250530000000 ,0.000036285400 ,0.000058758800 ,0.000018731800 ,0.000051353800 ,0.000003132970 ,0.000015189100 ,0.000029896900 ,0.000053604700 ,0.000178757000
2.260850000000 ,0.000045118900 ,0.000088042600 ,0.000032020300 ,0.000049817200 ,0.000003632350 ,0.000012559700 ,0.000026388100 ,0.000075852300 ,0.000120473000
2.271180000000 ,0.000050061500 ,0.000102586000 ,0.000035080400 ,0.000082920900 ,0.000005075260 ,0.000010084800 ,0.000027315500 ,0.000087015000 ,0.000163726000
2.281500000000 ,0.000036857300 ,0.000076109400 ,0.000035224000 ,0.000131635000 ,0.000005548750 ,0.000007428710 ,0.000027774400 ,0.000086086100 ,0.000215114000
2.291820000000 ,0.000027753500 ,0.000034579200 ,0.000029425500 ,0.000128100000 ,0.000004717340 ,0.000007598260 ,0.000027960100 ,0.000067787300 ,0.000159454000
2.302150000000 ,0.000024387200 ,0.000032631800 ,0.000034514200 ,0.000097922200 ,0.000003902460 ,0.000008400240 ,0.000023994800 ,0.000033021600 ,0.000104297000
2.312470000000 ,0.000028561200 ,0.000026593300 ,0.000070212200 ,0.000086993500 ,0.000003962980 ,0.000023238300 ,0.000022306100 ,0.000027780600 ,0.000192044000
2.322790000000 ,0.000044502100 ,0.000018276900 ,0.000081207800 ,0.000077888700 ,0.000003410560 ,0.000026600100 ,0.000033547800 ,0.000040572900 ,0.000207200000
2.333120000000 ,0.000040754200 ,0.000018576500 ,0.000123078000 ,0.000109891000 ,0.000004066820 ,0.000018171000 ,0.000029200400 ,0.000044218700 ,0.000167629000
2.343440000000 ,0.000031320800 ,0.000019679600 ,0.000209727000 ,0.000166419000 ,0.000004086780 ,0.000016575000 ,0.000021848700 ,0.000050843600 ,0.000169621000
2.353760000000 ,0.000073054300 ,0.000018881400 ,0.000216250000 ,0.000144866000 ,0.000003660730 ,0.000016934000 ,0.000031594700 ,0.000065970000 ,0.000159610000
2.364090000000 ,0.000108913000 ,0.000019097000 ,0.000176636000 ,0.000099262500 ,0.000004565370 ,0.000017035100 ,0.000034352100 ,0.000068406200 ,0.000151148000
2.374410000000 ,0.000101618000 ,0.000016980300 ,0.000139180000 ,0.000165778000 ,0.000005210520 ,0.000021691300 ,0.000024829100 ,0.000047487600 ,0.000209501000
2.384740000000 ,0.000080295700 ,0.000016718300 ,0.000114542000 ,0.000176913000 ,0.000004731550 ,0.000025570300 ,0.000015359300 ,0.000021907000 ,0.000250944000
2.395060000000 ,0.000059391900 ,0.000012966100 ,0.000132447000 ,0.000195820000 ,0.000006209190 ,0.000020944800 ,0.000011811300 ,0.000015826900 ,0.000207244000
2.405380000000 ,0.000058320300 ,0.000012199700 ,0.000153010000 ,0.000203648000 ,0.000007405010 ,0.000022007700 ,0.000014670500 ,0.000016800600 ,0.000125066000
2.415710000000 ,0.000067871200 ,0.000019780100 ,0.000172698000 ,0.000159106000 ,0.000007913400 ,0.000036912600 ,0.000024218700 ,0.000015117600 ,0.000091745800
2.426030000000 ,0.000076803100 ,0.000021108600 ,0.000129751000 ,0.000170802000 ,0.000007471130 ,0.000060814400 ,0.000023726800 ,0.000027616000 ,0.000160945000
2.436350000000 ,0.000068854100 ,0.000012987000 ,0.000065542100 ,0.000158250000 ,0.000005791150 ,0.000058768200 ,0.000017540000 ,0.000041800500 ,0.000188668000
2.446680000000 ,0.000039611200 ,0.000013435700 ,0.000078100800 ,0.000091976400 ,0.000005499310 ,0.000061911000 ,0.000021946700 ,0.000039904500 ,0.000130024000
2.457000000000 ,0.000031160400 ,0.000016851500 ,0.000076648600 ,0.000071608700 ,0.000007357380 ,0.000103952000 ,0.000025297100 ,0.000033669100 ,0.000102256000
2.467320000000 ,0.000040978400 ,0.000012764000 ,0.000082934500 ,0.000078686100 ,0.000007472760 ,0.000122881000 ,0.000021164900 ,0.000031601500 ,0.000121855000
2.477650000000 ,0.000055700800 ,0.000014001500 ,0.000092802500 ,0.000137621000 ,0.000017999200 ,0.000120490000 ,0.000015037300 ,0.000023716300 ,0.000109663000
2.487970000000 ,0.000058841200 ,0.000013391300 ,0.000063506300 ,0.000183689000 ,0.000037266300 ,0.000122371000 ,0.000031190100 ,0.000030823900 ,0.000068621300
2.498290000000 ,0.000076385400 ,0.000004384220 ,0.000158579000 ,0.000135436000 ,0.000044341300 ,0.000133331000 ,0.000035593400 ,0.000072251200 ,0.000044499800
2.508620000000 ,0.000108960000 ,0.000010367900 ,0.000213401000 ,0.000069100200 ,0.000033122700 ,0.000112948000 ,0.000028573500 ,0.000079840400 ,0.000065952400
2.518940000000 ,0.000090571500 ,0.000018452400 ,0.000192675000 ,0.000115140000 ,0.000018316000 ,0.000080777400 ,0.000063343800 ,0.000063738200 ,0.000097858300
2.529260000000 ,0.000116804000 ,0.000018741200 ,0.000157815000 ,0.000120571000 ,0.000025389600 ,0.000077003500 ,0.000073002600 ,0.000071646700 ,0.000110914000
2.539590000000 ,0.000143563000 ,0.000011112400 ,0.000122615000 ,0.000105325000 ,0.000028346200 ,0.000032618600 ,0.000065321500 ,0.000074107700 ,0.000095083900
2.549910000000 ,0.000171195000 ,0.000018350200 ,0.000128187000 ,0.000091706400 ,0.000020074300 ,0.000051746400 ,0.000060190000 ,0.000113578000 ,0.000089107600
2.560240000000 ,0.000197916000 ,0.000021360900 ,0.000139855000 ,0.000096306500 ,0.000016160800 ,0.000157606000 ,0.000045615900 ,0.000168302000 ,0.000077516500
2.570560000000 ,0.000158906000 ,0.000014946500 ,0.000113162000 ,0.000200440000 ,0.000032659700 ,0.000179441000 ,0.000043486500 ,0.000201833000 ,0.000033601200
2.580880000000 ,0.000199894000 ,0.000014690900 ,0.000080647600 ,0.000189317000 ,0.000041376400 ,0.000088868100 ,0.000060039800 ,0.000225112000 ,0.000017833100
2.591210000000 ,0.000177295000 ,0.000022410000 ,0.000058885500 ,0.000090308300 ,0.000036740600 ,0.000026312800 ,0.000067694500 ,0.000211706000 ,0.000012650600
2.601530000000 ,0.000125545000 ,0.000021596900 ,0.000054569100 ,0.000120289000 ,0.000026949300 ,0.000018537000 ,0.000055232000 ,0.000139471000 ,0.000009741230
2.611850000000 ,0.000100061000 ,0.000016065800 ,0.000069357200 ,0.000139458000 ,0.000019732500 ,0.000022185900 ,0.000036247600 ,0.000105659000 ,0.000009505620
2.622180000000 ,0.000079341000 ,0.000022971500 ,0.000063926300 ,0.000108112000 ,0.000017178100 ,0.000019618300 ,0.000026913300 ,0.000122092000 ,0.000010874800
2.632500000000 ,0.000068215400 ,0.000022338200 ,0.000048809400 ,0.000053272700 ,0.000016468200 ,0.000016023300 ,0.000046346700 ,0.000104455000 ,0.000012565100
2.642820000000 ,0.000031662100 ,0.000015527600 ,0.000042369200 ,0.000059011700 ,0.000018468200 ,0.000017937200 ,0.000056898800 ,0.000113110000 ,0.000012000900
2.653150000000 ,0.000033754700 ,0.000014928800 ,0.000037227700 ,0.000063786800 ,0.000019077800 ,0.000020074800 ,0.000049694600 ,0.000099579400 ,0.000007623840
2.663470000000 ,0.000021383200 ,0.000012500000 ,0.000030258100 ,0.000054701000 ,0.000020139100 ,0.000023653100 ,0.000038004300 ,0.000073188600 ,0.000014355800
2.673790000000 ,0.000014344500 ,0.000009685920 ,0.000037643700 ,0.000046673700 ,0.000017918200 ,0.000018500300 ,0.000048267200 ,0.000109722000 ,0.000017957100
2.684120000000 ,0.000015660400 ,0.000009682470 ,0.000071442700 ,0.000058194700 ,0.000007768820 ,0.000015665500 ,0.000059867400 ,0.000187613000 ,0.000022557400
2.694440000000 ,0.000013285000 ,0.000021344400 ,0.000126903000 ,0.000058037200 ,0.000015541100 ,0.000019108500 ,0.000047963900 ,0.000323109000 ,0.000022121200
2.704760000000 ,0.000093372400 ,0.000036539600 ,0.000135379000 ,0.000050472900 ,0.000015967500 ,0.000020391600 ,0.000030924300 ,0.000321314000 ,0.000020626800
2.715090000000 ,0.000223551000 ,0.000037820500 ,0.000128177000 ,0.000046537800 ,0.000016745400 ,0.000027294900 ,0.000055744400 ,0.000272115000 ,0.000026416100
2.725410000000 ,0.000266346000 ,0.000033409300 ,0.000138897000 ,0.000046278400 ,0.000018159600 ,0.000027218300 ,0.000055422300 ,0.000285966000 ,0.000045128100
2.735740000000 ,0.000215937000 ,0.000028143500 ,0.000110006000 ,0.000039875400 ,0.000019717500 ,0.000016571500 ,0.000031495500 ,0.000198684000 ,0.000040749900
2.746060000000 ,0.000153114000 ,0.000019712600 ,0.000076034400 ,0.000054897100 ,0.000024960000 ,0.000017809800 ,0.000031576900 ,0.000139772000 ,0.000004814800
2.756380000000 ,0.000142474000 ,0.000019512500 ,0.000055219900 ,0.000062566900 ,0.000022607800 ,0.000033937600 ,0.000035144700 ,0.000124354000 ,0.000006642880
2.766710000000 ,0.000109666000 ,0.000019155600 ,0.000038627900 ,0.000056550100 ,0.000020929900 ,0.000083556700 ,0.000036867600 ,0.000052355500 ,0.000010093700
2.777030000000 ,0.000130484000 ,0.000015724100 ,0.000042259700 ,0.000042769300 ,0.000024239500 ,0.000127069000 ,0.000037833600 ,0.000038692400 ,0.000011183600
2.787350000000 ,0.000207541000 ,0.000013848600 ,0.000024353600 ,0.000046128700 ,0.000027438000 ,0.000129081000 ,0.000043781200 ,0.000052770100 ,0.000010833700
2.797680000000 ,0.000257460000 ,0.000013073700 ,0.000018841500 ,0.000054532700 ,0.000030660200 ,0.000083732100 ,0.000036920700 ,0.000047652400 ,0.000008551750
2.808000000000 ,0.000204678000 ,0.000010504300 ,0.000027720600 ,0.000042591500 ,0.000028547600 ,0.000028628400 ,0.000017164300 ,0.000028913600 ,0.000011271400
2.818320000000 ,0.000116395000 ,0.000007014590 ,0.000034808600 ,0.000034934800 ,0.000022329800 ,0.000022299000 ,0.000022069300 ,0.000027892100 ,0.000015206900
2.828650000000 ,0.000113670000 ,0.000005633630 ,0.000024587100 ,0.000049021700 ,0.000028103700 ,0.000030734400 ,0.000023624000 ,0.000035723100 ,0.000016431300
2.838970000000 ,0.000192924000 ,0.000006331120 ,0.000022854500 ,0.000042926100 ,0.000026037200 ,0.000028558200 ,0.000022880400 ,0.000048365500 ,0.000013036400
2.849290000000 ,0.000227590000 ,0.000007070980 ,0.000044632400 ,0.000017699200 ,0.000022287100 ,0.000027208400 ,0.000030380200 ,0.000042796400 ,0.000007390830
2.859620000000 ,0.000146734000 ,0.000006900990 ,0.000041776800 ,0.000026116900 ,0.000023563000 ,0.000041598000 ,0.000031819700 ,0.000039514900 ,0.000008896710
2.869940000000 ,0.000072903100 ,0.000007901420 ,0.000018863500 ,0.000035745100 ,0.000017165500 ,0.000038727300 ,0.000045594200 ,0.000045959900 ,0.000012712900
2.880260000000 ,0.000056665100 ,0.000008233130 ,0.000025440700 ,0.000047136700 ,0.000019965800 ,0.000033104800 ,0.000051151100 ,0.000075890000 ,0.000014394500
2.890590000000 ,0.000028786700 ,0.000007033850 ,0.000028239900 ,0.000047860300 ,0.000021265000 ,0.000031313800 ,0.000036400300 ,0.000145713000 ,0.000018838200
2.900910000000 ,0.000021358200 ,0.000008680710 ,0.000018289500 ,0.000044658500 ,0.000021904600 ,0.000051959500 ,0.000020239400 ,0.000141892000 ,0.000024257100
2.911240000000 ,0.000027912900 ,0.000010844000 ,0.000018253800 ,0.000036488600 ,0.000018626300 ,0.000061535500 ,0.000023638400 ,0.000066305900 ,0.000028816400
2.921560000000 ,0.000058775900 ,0.000009972400 ,0.000022885400 ,0.000024408900 ,0.000020199900 ,0.000072362100 ,0.000028085900 ,0.000034941000 ,0.000025000100
2.931880000000 ,0.000084848100 ,0.000010941900 ,0.000023448500 ,0.000028482700 ,0.000023700300 ,0.000067564800 ,0.000023795000 ,0.000022807700 ,0.000012851000
2.942210000000 ,0.000087245100 ,0.000012342500 ,0.000028732300 ,0.000038462900 ,0.000019850500 ,0.000046509900 ,0.000020165400 ,0.000010520700 ,0.000030021400
2.952530000000 ,0.000085040500 ,0.000011040300 ,0.000024201100 ,0.000033266200 ,0.000023622300 ,0.000032115600 ,0.000018717100 ,0.000014017500 ,0.000045450000
2.962850000000 ,0.000059003800 ,0.000010875400 ,0.000010822200 ,0.000023856600 ,0.000022781700 ,0.000024923900 ,0.000019962500 ,0.000022863700 ,0.000041378400
2.973180000000 ,0.000040527700 ,0.000009240960 ,0.000006064420 ,0.000029120800 ,0.000016340500 ,0.000026752000 ,0.000016038900 ,0.000036789200 ,0.000025001600
2.983500000000 ,0.000042315300 ,0.000008560990 ,0.000005434410 ,0.000019806200 ,0.000018839900 ,0.000025182000 ,0.000016676500 ,0.000047960500 ,0.000029885500
2.993820000000 ,0.000029574100 ,0.000014837200 ,0.000009499030 ,0.000007758230 ,0.000016202100 ,0.000016329500 ,0.000032557500 ,0.000042242800 ,0.000029363400
3.004150000000 ,0.000033395900 ,0.000031233300 ,0.000010448400 ,0.000005608180 ,0.000016137500 ,0.000012315100 ,0.000039349100 ,0.000024002500 ,0.000019034700
3.014470000000 ,0.000032003700 ,0.000031163100 ,0.000011648600 ,0.000009421300 ,0.000018371800 ,0.000014166300 ,0.000030944500 ,0.000015322400 ,0.000020713600
3.024790000000 ,0.000035221200 ,0.000026135300 ,0.000016883800 ,0.000013100900 ,0.000012168700 ,0.000013789100 ,0.000034705700 ,0.000016441900 ,0.000022449900
3.035120000000 ,0.000035941300 ,0.000023465600 ,0.000015719600 ,0.000009787560 ,0.000015129400 ,0.000012937800 ,0.000035635300 ,0.000024720300 ,0.000028747700
3.045440000000 ,0.000023052100 ,0.000018747100 ,0.000008678740 ,0.000004166720 ,0.000016097500 ,0.000015361700 ,0.000019811100 ,0.000027643700 ,0.000038772800
3.055760000000 ,0.000020519100 ,0.000018698000 ,0.000008743160 ,0.000005956950 ,0.000013043900 ,0.000013238600 ,0.000011498800 ,0.000027935500 ,0.000038750100
3.066090000000 ,0.000018261900 ,0.000007645320 ,0.000018905300 ,0.000008553190 ,0.000014546100 ,0.000014177800 ,0.000011935600 ,0.000023851700 ,0.000027481600
3.076410000000 ,0.000013617200 ,0.000009003530 ,0.000025874100 ,0.000010523000 ,0.000012182800 ,0.000014518700 ,0.000018127600 ,0.000018710900 ,0.000023131600
3.086740000000 ,0.000014021700 ,0.000008810310 ,0.000030539600 ,0.000015049500 ,0.000008932660 ,0.000009399120 ,0.000021915700 ,0.000031068400 ,0.000019669700
3.097060000000 ,0.000009610650 ,0.000007495270 ,0.000030168000 ,0.000017854700 ,0.000014961200 ,0.000009580970 ,0.000024503300 ,0.000030758800 ,0.000029673500
3.107380000000 ,0.000010224800 ,0.000009143710 ,0.000022951000 ,0.000019162400 ,0.000015631800 ,0.000017982300 ,0.000021623000 ,0.000019122000 ,0.000069308800
3.117710000000 ,0.000027664400 ,0.000014324400 ,0.000015700300 ,0.000014964800 ,0.000015372700 ,0.000051417700 ,0.000012178400 ,0.000016946500 ,0.000067066600
3.128030000000 ,0.000291778000 ,0.000039091800 ,0.000009570780 ,0.000004835380 ,0.000011765900 ,0.000090961300 ,0.000011132300 ,0.000024203400 ,0.000032570900
3.138350000000 ,0.000877285000 ,0.000125538000 ,0.000008437760 ,0.000003989180 ,0.000013567900 ,0.000080731900 ,0.000012745500 ,0.000024544800 ,0.000047844700
3.148680000000 ,0.001149070000 ,0.000186996000 ,0.000007755220 ,0.000002928550 ,0.000015585900 ,0.000036593400 ,0.000010673700 ,0.000016563400 ,0.000061853400
3.159000000000 ,0.000857967000 ,0.000158448000 ,0.000007215630 ,0.000003258170 ,0.000009722770 ,0.000026080500 ,0.000013528400 ,0.000013781600 ,0.000089603600
3.169320000000 ,0.000532415000 ,0.000114428000 ,0.000012433800 ,0.000006084370 ,0.000011396700 ,0.000012783400 ,0.000013304400 ,0.000012738500 ,0.000133275000
3.179650000000 ,0.000517614000 ,0.000108456000 ,0.000017092800 ,0.000007417540 ,0.000011610200 ,0.000014070400 ,0.000007853730 ,0.000015796200 ,0.000121614000
3.189970000000 ,0.000305171000 ,0.000063538700 ,0.000018974000 ,0.000005840950 ,0.000007226610 ,0.000015177500 ,0.000007065500 ,0.000015607900 ,0.000093975700
3.200290000000 ,0.000248730000 ,0.000067672900 ,0.000014876100 ,0.000004657420 ,0.000012168600 ,0.000024936400 ,0.000005299350 ,0.000011097600 ,0.000085659700
3.210620000000 ,0.000143163000 ,0.000057679600 ,0.000014298800 ,0.000011393400 ,0.000009831930 ,0.000025812500 ,0.000008867240 ,0.000014266200 ,0.000128842000
3.220940000000 ,0.000081204200 ,0.000055384500 ,0.000014959000 ,0.000018392400 ,0.000002990320 ,0.000012393100 ,0.000011591500 ,0.000014401700 ,0.000170973000
3.231260000000 ,0.000103206000 ,0.000047731700 ,0.000022490900 ,0.000048113400 ,0.000006844010 ,0.000009308120 ,0.000013440400 ,0.000012835800 ,0.000176568000
3.241590000000 ,0.000085589300 ,0.000018019600 ,0.000035521900 ,0.000087708100 ,0.000009753970 ,0.000009149250 ,0.000015649000 ,0.000012226000 ,0.000197766000
3.251910000000 ,0.000047848100 ,0.000017053200 ,0.000029441000 ,0.000093985100 ,0.000007722440 ,0.000020359700 ,0.000014687600 ,0.000015141000 ,0.000168137000
3.262240000000 ,0.000041617900 ,0.000037497400 ,0.000010924500 ,0.000075693600 ,0.000008147260 ,0.000035092400 ,0.000011552400 ,0.000027040900 ,0.000086393400
3.272560000000 ,0.000019601100 ,0.000040675500 ,0.000011029300 ,0.000054477300 ,0.000014170200 ,0.000033760300 ,0.000009096560 ,0.000052803600 ,0.000103008000
3.282880000000 ,0.000016205000 ,0.000041832600 ,0.000025443800 ,0.000043685600 ,0.000012085600 ,0.000020318100 ,0.000060631800 ,0.000117369000 ,0.000267347000
3.293210000000 ,0.000008484560 ,0.000037506200 ,0.000030808900 ,0.000040484400 ,0.000005297990 ,0.000018495000 ,0.000177517000 ,0.000126885000 ,0.000291198000
3.303530000000 ,0.000006857760 ,0.000025374700 ,0.000024229700 ,0.000017292600 ,0.000005132520 ,0.000013631900 ,0.000209065000 ,0.000079097200 ,0.000192303000
3.313850000000 ,0.000006124040 ,0.000026797000 ,0.000039555200 ,0.000015108100 ,0.000009924160 ,0.000012812500 ,0.000165217000 ,0.000044061300 ,0.000136670000
3.324180000000 ,0.000008259330 ,0.000027531800 ,0.000040671200 ,0.000013461700 ,0.000009972720 ,0.000010514300 ,0.000129968000 ,0.000056190100 ,0.000111382000
3.334500000000 ,0.000027880400 ,0.000025431700 ,0.000028736100 ,0.000012440200 ,0.000006820480 ,0.000007737480 ,0.000135652000 ,0.000071205600 ,0.000107176000
3.344820000000 ,0.000035059300 ,0.000031448400 ,0.000022765000 ,0.000012239100 ,0.000005193430 ,0.000005081130 ,0.000120851000 ,0.000085488300 ,0.000068300700
3.355150000000 ,0.000025221900 ,0.000048567700 ,0.000006528400 ,0.000012867800 ,0.000010232500 ,0.000007878460 ,0.000090576900 ,0.000087831600 ,0.000049655000
3.365470000000 ,0.000014880900 ,0.000050298500 ,0.000008712860 ,0.000017430800 ,0.000011870200 ,0.000011503500 ,0.000085024200 ,0.000077616400 ,0.000042569300
3.375790000000 ,0.000007963260 ,0.000043230500 ,0.000012828300 ,0.000017268400 ,0.000010557400 ,0.000016206500 ,0.000032984500 ,0.000065918400 ,0.000050860700
3.386120000000 ,0.000010434900 ,0.000052107700 ,0.000012479600 ,0.000016753400 ,0.000010139400 ,0.000015472100 ,0.000022125900 ,0.000071161500 ,0.000052564900
3.396440000000 ,0.000011991100 ,0.000058495000 ,0.000024135000 ,0.000017725700 ,0.000010753200 ,0.000013349300 ,0.000023321700 ,0.000068837700 ,0.000115142000
3.406760000000 ,0.000009882750 ,0.000039816900 ,0.000113841000 ,0.000014873700 ,0.000017033200 ,0.000012914400 ,0.000023540100 ,0.000042898000 ,0.000163116000
3.417090000000 ,0.000006887430 ,0.000019698400 ,0.000198168000 ,0.000021400600 ,0.000024847000 ,0.000015019100 ,0.000013637800 ,0.000047891200 ,0.000155388000
3.427410000000 ,0.000011476100 ,0.000018694300 ,0.000186867000 ,0.000025692800 ,0.000018913300 ,0.000015912700 ,0.000011895200 ,0.000047501500 ,0.000110488000
3.437740000000 ,0.000011680200 ,0.000019917600 ,0.000124105000 ,0.000021389100 ,0.000017173300 ,0.000016695200 ,0.000008203410 ,0.000046572700 ,0.000074742000
3.448060000000 ,0.000008259460 ,0.000020878200 ,0.000087257900 ,0.000156441000 ,0.000020652000 ,0.000016462800 ,0.000010969500 ,0.000040689100 ,0.000064261800
3.458380000000 ,0.000006978600 ,0.000021061900 ,0.000068674300 ,0.000248661000 ,0.000013640300 ,0.000007282920 ,0.000009757640 ,0.000028771600 ,0.000027331600
3.468710000000 ,0.000006416700 ,0.000020799300 ,0.000067717600 ,0.000204145000 ,0.000012859500 ,0.000008271550 ,0.000007799140 ,0.000020809400 ,0.000048803000
3.479030000000 ,0.000005691910 ,0.000017813200 ,0.000025687700 ,0.000095331200 ,0.000018188100 ,0.000018398200 ,0.000009980270 ,0.000025124900 ,0.000067930700
3.489350000000 ,0.000003882870 ,0.000016974500 ,0.000048439000 ,0.000076674600 ,0.000013966300 ,0.000017999200 ,0.000009052450 ,0.000027669300 ,0.000060175600
3.499680000000 ,0.000004083260 ,0.000013428000 ,0.000213419000 ,0.000074865300 ,0.000015297600 ,0.000016137400 ,0.000006901470 ,0.000022875900 ,0.000042147500
3.510000000000 ,0.000005182800 ,0.000007090410 ,0.000258167000 ,0.000075399600 ,0.000017755600 ,0.000020808500 ,0.000009074290 ,0.000015367500 ,0.000024031800
3.520320000000 ,0.000005736920 ,0.000008143950 ,0.000186711000 ,0.000194922000 ,0.000013458000 ,0.000016269300 ,0.000010829600 ,0.000017064200 ,0.000028562500
3.530650000000 ,0.000004112170 ,0.000009099650 ,0.000143179000 ,0.000257266000 ,0.000007483640 ,0.000009124660 ,0.000013225900 ,0.000024876000 ,0.000034656400
3.540970000000 ,0.000003429190 ,0.000008458460 ,0.000253409000 ,0.000194578000 ,0.000007469810 ,0.000006854410 ,0.000014257400 ,0.000029886200 ,0.000021617000
3.551290000000 ,0.000008248570 ,0.000007384930 ,0.000248489000 ,0.000111520000 ,0.000007140020 ,0.000008232790 ,0.000012514200 ,0.000023772000 ,0.000007768740
3.561620000000 ,0.000010281700 ,0.000008727980 ,0.000176716000 ,0.000104034000 ,0.000007980480 ,0.000007271890 ,0.000020077400 ,0.000029536000 ,0.000008663000
3.571940000000 ,0.000010562800 ,0.000009228970 ,0.000184839000 ,0.000129261000 ,0.000007125360 ,0.000004422120 ,0.000026754500 ,0.000037387000 ,0.000008810070
3.582260000000 ,0.000009856200 ,0.000007680900 ,0.000096586900 ,0.000102613000 ,0.000004663560 ,0.000003362540 ,0.000028634200 ,0.000038270700 ,0.000010092100
3.592590000000 ,0.000011065200 ,0.000005518180 ,0.000017740300 ,0.000036017200 ,0.000003821410 ,0.000003011490 ,0.000025972200 ,0.000032940100 ,0.000012133600
3.602910000000 ,0.000012731900 ,0.000006876310 ,0.000007735400 ,0.000023357300 ,0.000003584570 ,0.000003776740 ,0.000017693800 ,0.000020087800 ,0.000035936500
3.613240000000 ,0.000011277400 ,0.000011021900 ,0.000006056930 ,0.000013327400 ,0.000003141070 ,0.000003596930 ,0.000011611400 ,0.000025554200 ,0.000063148900
3.623560000000 ,0.000009515510 ,0.000015582900 ,0.000006122380 ,0.000008404700 ,0.000003646810 ,0.000008635880 ,0.000011117800 ,0.000030301200 ,0.000066857500
3.633880000000 ,0.000012374900 ,0.000014474800 ,0.000006247220 ,0.000005888850 ,0.000005162290 ,0.000010852300 ,0.000009146220 ,0.000025211400 ,0.000051858400
3.644210000000 ,0.000012256800 ,0.000013382800 ,0.000004951890 ,0.000007648620 ,0.000004023490 ,0.000007695190 ,0.000009246940 ,0.000025451400 ,0.000037357500
3.654530000000 ,0.000014714200 ,0.000015223800 ,0.000006606760 ,0.000006667710 ,0.000002584340 ,0.000006714480 ,0.000011127200 ,0.000019994900 ,0.000023521400
3.664850000000 ,0.000014526300 ,0.000012748100 ,0.000006208900 ,0.000005531430 ,0.000001770150 ,0.000006148150 ,0.000013566200 ,0.000015415400 ,0.000022355500
3.675180000000 ,0.000008977850 ,0.000023746200 ,0.000005608120 ,0.000005410180 ,0.000001745850 ,0.000004645860 ,0.000017919700 ,0.000027004900 ,0.000020518400
3.685500000000 ,0.000031743400 ,0.000032190200 ,0.000004827800 ,0.000002897010 ,0.000002794010 ,0.000005703760 ,0.000017939800 ,0.000030732200 ,0.000018513900
3.695820000000 ,0.000072836200 ,0.000039372300 ,0.000004401700 ,0.000003119870 ,0.000003032930 ,0.000009553550 ,0.000011949700 ,0.000025046900 ,0.000029367600
3.706150000000 ,0.000080621000 ,0.000039250900 ,0.000004726970 ,0.000004920210 ,0.000002436640 ,0.000015471700 ,0.000009728660 ,0.000018171200 ,0.000029119200
3.716470000000 ,0.000071998800 ,0.000030658600 ,0.000003577100 ,0.000005589600 ,0.000003233230 ,0.000015101300 ,0.000008879290 ,0.000014199100 ,0.000025739300
3.726790000000 ,0.000079944400 ,0.000019904700 ,0.000004810900 ,0.000007153850 ,0.000003358970 ,0.000018934200 ,0.000010678700 ,0.000013770400 ,0.000020993800
3.737120000000 ,0.000068241100 ,0.000016495100 ,0.000005292350 ,0.000008819340 ,0.000002307110 ,0.000023775300 ,0.000011409400 ,0.000010880900 ,0.000008546050
3.747440000000 ,0.000035656500 ,0.000011618700 ,0.000004058680 ,0.000013810700 ,0.000001893140 ,0.000021606900 ,0.000009449880 ,0.000009499930 ,0.000031617200
3.757760000000 ,0.000064387300 ,0.000012597000 ,0.000004526480 ,0.000059003900 ,0.000002052720 ,0.000015801300 ,0.000009414650 ,0.000008973190 ,0.000051941900
3.768090000000 ,0.000062793700 ,0.000009335070 ,0.000006211460 ,0.000090182800 ,0.000002797290 ,0.000008407330 ,0.000006146560 ,0.000007337840 ,0.000052823500
3.778410000000 ,0.000044617700 ,0.000006004840 ,0.000012985400 ,0.000105448000 ,0.000002330730 ,0.000006680260 ,0.000006248450 ,0.000011066300 ,0.000050269300
3.788740000000 ,0.000034057100 ,0.000003901080 ,0.000016076200 ,0.000080989900 ,0.000002117840 ,0.000005218940 ,0.000006252840 ,0.000009951390 ,0.000058780100
3.799060000000 ,0.000012934600 ,0.000006440600 ,0.000020370800 ,0.000039831000 ,0.000001953070 ,0.000004362770 ,0.000005240200 ,0.000005336870 ,0.000050958900
3.809380000000 ,0.000012886500 ,0.000012675400 ,0.000052490400 ,0.000059036400 ,0.000002126800 ,0.000002357020 ,0.000005256460 ,0.000006759890 ,0.000069866700
3.819710000000 ,0.000009643350 ,0.000020074100 ,0.000079332300 ,0.000058899700 ,0.000002454340 ,0.000002740930 ,0.000006681650 ,0.000007966930 ,0.000079191800
3.830030000000 ,0.000008696990 ,0.000022496300 ,0.000075135700 ,0.000066275100 ,0.000002552680 ,0.000002498710 ,0.000008950320 ,0.000009060660 ,0.000053884200
3.840350000000 ,0.000006830870 ,0.000018880600 ,0.000044217800 ,0.000062390800 ,0.000001967510 ,0.000002078240 ,0.000007776170 ,0.000008579280 ,0.000049608000
3.850680000000 ,0.000009331790 ,0.000013736800 ,0.000017732300 ,0.000035764900 ,0.000001160130 ,0.000001926400 ,0.000004070990 ,0.000009109050 ,0.000102143000
3.861000000000 ,0.000009402970 ,0.000009436230 ,0.000023769300 ,0.000032055700 ,0.000002177160 ,0.000001597950 ,0.000004703460 ,0.000010558900 ,0.000144665000
3.871320000000 ,0.000008516920 ,0.000007799060 ,0.000026241200 ,0.000026459600 ,0.000002186570 ,0.000002358660 ,0.000005449480 ,0.000008137800 ,0.000133149000
3.881650000000 ,0.000008566970 ,0.000007694490 ,0.000018232100 ,0.000047666800 ,0.000001037250 ,0.000002815840 ,0.000008772030 ,0.000009382320 ,0.000095778300
3.891970000000 ,0.000013002600 ,0.000005118230 ,0.000007831160 ,0.000072986300 ,0.000001045070 ,0.000003309350 ,0.000010829300 ,0.000010137800 ,0.000071204200
3.902290000000 ,0.000017597000 ,0.000007168060 ,0.000020492900 ,0.000062741900 ,0.000000990893 ,0.000003176640 ,0.000011328700 ,0.000017629400 ,0.000093491200
3.912620000000 ,0.000019871100 ,0.000011660100 ,0.000027000200 ,0.000043425200 ,0.000000811137 ,0.000002443170 ,0.000018950200 ,0.000028486300 ,0.000154957000
3.922940000000 ,0.000019547200 ,0.000015434100 ,0.000043197800 ,0.000037503200 ,0.000000924006 ,0.000002740270 ,0.000022952600 ,0.000028761700 ,0.000148198000
3.933260000000 ,0.000016182300 ,0.000016282400 ,0.000045292900 ,0.000017621500 ,0.000001204930 ,0.000003049300 ,0.000017271100 ,0.000024926100 ,0.000073703800
3.943590000000 ,0.000016924100 ,0.000018401400 ,0.000024816400 ,0.000012147900 ,0.000001369990 ,0.000002890310 ,0.000012451200 ,0.000018880500 ,0.000022275200
3.953910000000 ,0.000014871100 ,0.000035675100 ,0.000013143500 ,0.000025907600 ,0.000001020550 ,0.000002342810 ,0.000010921000 ,0.000010447500 ,0.000021321400
3.964240000000 ,0.000009443150 ,0.000040218600 ,0.000010534500 ,0.000028192800 ,0.000001050110 ,0.000002088140 ,0.000005822000 ,0.000009037650 ,0.000035728400
3.974560000000 ,0.000011466200 ,0.000040503200 ,0.000007722510 ,0.000031512000 ,0.000001228240 ,0.000002466390 ,0.000005897260 ,0.000006077200 ,0.000038308100
3.984880000000 ,0.000009071930 ,0.000047817200 ,0.000013685200 ,0.000028817800 ,0.000001310910 ,0.000002704270 ,0.000005134220 ,0.000009745640 ,0.000044315800
3.995210000000 ,0.000011200300 ,0.000042139300 ,0.000027915600 ,0.000013736200 ,0.000001328220 ,0.000002910350 ,0.000001615670 ,0.000011563400 ,0.000045655400
4.005530000000 ,0.000012721400 ,0.000026007000 ,0.000040728100 ,0.000011155800 ,0.000000996783 ,0.000003580170 ,0.000001066970 ,0.000009684160 ,0.000036643200
4.015850000000 ,0.000017284400 ,0.000023353700 ,0.000037213800 ,0.000013903200 ,0.000001103510 ,0.000004018480 ,0.000003726360 ,0.000006923610 ,0.000028130900
4.026180000000 ,0.000017730400 ,0.000012359200 ,0.000023617900 ,0.000020659900 ,0.000001370450 ,0.000003489660 ,0.000003953590 ,0.000005668060 ,0.000006887290
4.036500000000 ,0.000013761600 ,0.000017064900 ,0.000017657900 ,0.000018588800 ,0.000001649120 ,0.000004365130 ,0.000002488200 ,0.000003153060 ,0.000015339900
4.046820000000 ,0.000016732700 ,0.000027606300 ,0.000014769500 ,0.000013872100 ,0.000001849170 ,0.000004852280 ,0.000002716110 ,0.000002624420 ,0.000036128200
4.057150000000 ,0.000016368000 ,0.000033366300 ,0.000016435000 ,0.000011142000 ,0.000002664840 ,0.000003977170 ,0.000002717710 ,0.000004358740 ,0.000037654500
4.067470000000 ,0.000017381700 ,0.000047921800 ,0.000020552000 ,0.000006308330 ,0.000003436280 ,0.000004930830 ,0.000003426030 ,0.000006285220 ,0.000057511000
4.077790000000 ,0.000026803900 ,0.000044241800 ,0.000036613000 ,0.000011410600 ,0.000003826510 ,0.000004933240 ,0.000004878210 ,0.000007344570 ,0.000065778600
4.088120000000 ,0.000030345200 ,0.000029455300 ,0.000036043900 ,0.000038360200 ,0.000004208450 ,0.000004205840 ,0.000004920390 ,0.000005620220 ,0.000039090700
4.098440000000 ,0.000020303000 ,0.000043796400 ,0.000054957400 ,0.000045823800 ,0.000003851770 ,0.000004935670 ,0.000004724280 ,0.000004534220 ,0.000023581600
4.108760000000 ,0.000011271500 ,0.000037134000 ,0.000073499100 ,0.000047865800 ,0.000003327190 ,0.000005128930 ,0.000004909870 ,0.000005338040 ,0.000035673100
4.119090000000 ,0.000012909200 ,0.000022440100 ,0.000054027500 ,0.000048920900 ,0.000002558360 ,0.000006200870 ,0.000003882110 ,0.000005397620 ,0.000041987000
4.129410000000 ,0.000025138100 ,0.000028989800 ,0.000045649400 ,0.000029688200 ,0.000002142560 ,0.000006024310 ,0.000004097420 ,0.000005226360 ,0.000032013300
4.139740000000 ,0.000029424200 ,0.000040222900 ,0.000074319900 ,0.000008190710 ,0.000001860790 ,0.000005597420 ,0.000003641790 ,0.000005464420 ,0.000024014600
4.150060000000 ,0.000017564500 ,0.000056950900 ,0.000081347300 ,0.000014778900 ,0.000001796010 ,0.000006591540 ,0.000004851070 ,0.000005994020 ,0.000030371400
4.160380000000 ,0.000012238300 ,0.000063008700 ,0.000093924400 ,0.000070421200 ,0.000001943270 ,0.000005056380 ,0.000007947690 ,0.000005036940 ,0.000034835000
4.170710000000 ,0.000021631100 ,0.000055228600 ,0.000085652500 ,0.000073971100 ,0.000002212710 ,0.000006434400 ,0.000006838100 ,0.000004489540 ,0.000037696100
4.181030000000 ,0.000025203000 ,0.000046627000 ,0.000040166600 ,0.000054058000 ,0.000002078050 ,0.000006575820 ,0.000004776360 ,0.000004507160 ,0.000032028500
4.191350000000 ,0.000020225000 ,0.000033096600 ,0.000050909500 ,0.000063003700 ,0.000003593350 ,0.000006344750 ,0.000005644210 ,0.000005202680 ,0.000022982100
4.201680000000 ,0.000019342600 ,0.000028328400 ,0.000087498300 ,0.000057210800 ,0.000004065740 ,0.000004943900 ,0.000005862780 ,0.000007080910 ,0.000022949700
4.212000000000 ,0.000020776100 ,0.000020479600 ,0.000087560300 ,0.000062326200 ,0.000003475590 ,0.000005108240 ,0.000008448370 ,0.000010075500 ,0.000032362100
4.222320000000 ,0.000014725800 ,0.000009271000 ,0.000086116800 ,0.000071222600 ,0.000003870930 ,0.000008489860 ,0.000010312900 ,0.000009293660 ,0.000032565900
4.232650000000 ,0.000010919700 ,0.000004177820 ,0.000154757000 ,0.000055934300 ,0.000003324410 ,0.000010343800 ,0.000008365470 ,0.000006274980 ,0.000030675200
4.242970000000 ,0.000014335800 ,0.000002339770 ,0.000154435000 ,0.000037156700 ,0.000004020380 ,0.000014399400 ,0.000005963630 ,0.000006456030 ,0.000032966300
4.253290000000 ,0.000014544000 ,0.000002629060 ,0.000081270700 ,0.000066993800 ,0.000004072230 ,0.000015600500 ,0.000006096280 ,0.000006742270 ,0.000034108700
4.263620000000 ,0.000008147820 ,0.000002218800 ,0.000060479500 ,0.000079032600 ,0.000002516690 ,0.000013194100 ,0.000006872430 ,0.000006015390 ,0.000051577400
4.273940000000 ,0.000007455840 ,0.000002799040 ,0.000048873100 ,0.000066550500 ,0.000003517390 ,0.000012535200 ,0.000008380240 ,0.000005576690 ,0.000053576100
4.284260000000 ,0.000005864740 ,0.000003590350 ,0.000033073500 ,0.000049771500 ,0.000005564340 ,0.000050307600 ,0.000012190900 ,0.000008657830 ,0.000043481500
4.294590000000 ,0.000004841930 ,0.000003274100 ,0.000036490200 ,0.000046527300 ,0.000004985370 ,0.000057467500 ,0.000010972700 ,0.000008598630 ,0.000055421800
4.304910000000 ,0.000009568680 ,0.000003590040 ,0.000029056900 ,0.000053930800 ,0.000003066530 ,0.000035652700 ,0.000004102150 ,0.000005963610 ,0.000062694800
4.315240000000 ,0.000011470600 ,0.000004235690 ,0.000019021300 ,0.000048306700 ,0.000003556790 ,0.000028414800 ,0.000003091320 ,0.000017744900 ,0.000072444700
4.325560000000 ,0.000022523800 ,0.000003711710 ,0.000016921500 ,0.000040281600 ,0.000003004530 ,0.000064505800 ,0.000005636720 ,0.000022249300 ,0.000070996600
4.335880000000 ,0.000029227300 ,0.000003036020 ,0.000021772300 ,0.000037614300 ,0.000002263090 ,0.000096598700 ,0.000007139470 ,0.000015611400 ,0.000072335400
4.346210000000 ,0.000033318800 ,0.000003855350 ,0.000040827300 ,0.000029119300 ,0.000002406130 ,0.000087607500 ,0.000005596510 ,0.000015022800 ,0.000088234100
4.356530000000 ,0.000028112600 ,0.000003489100 ,0.000037774100 ,0.000034470700 ,0.000002577320 ,0.000061338500 ,0.000003775870 ,0.000014914200 ,0.000074887600
4.366850000000 ,0.000018221800 ,0.000004909670 ,0.000024079900 ,0.000036162300 ,0.000002124580 ,0.000037589600 ,0.000003975720 ,0.000007602600 ,0.000050830300
4.377180000000 ,0.000028067800 ,0.000007356450 ,0.000055168700 ,0.000026156300 ,0.000001926440 ,0.000031001500 ,0.000004558180 ,0.000023352000 ,0.000042715200
4.387500000000 ,0.000037571800 ,0.000007654260 ,0.000077340700 ,0.000023799400 ,0.000002189630 ,0.000021685300 ,0.000005933210 ,0.000032428900 ,0.000040229000
4.397820000000 ,0.000043941800 ,0.000006731430 ,0.000064035600 ,0.000022615500 ,0.000001532430 ,0.000023009500 ,0.000005952070 ,0.000028053700 ,0.000043265900
4.408150000000 ,0.000063657700 ,0.000004874750 ,0.000056581700 ,0.000021010200 ,0.000000904686 ,0.000013416000 ,0.000005301870 ,0.000041967000 ,0.000030770100
4.418470000000 ,0.000068841300 ,0.000005306380 ,0.000062501200 ,0.000028588900 ,0.000001046850 ,0.000008855220 ,0.000004811200 ,0.000053251000 ,0.000008338740
4.428790000000 ,0.000061260500 ,0.000011888100 ,0.000040462200 ,0.000042061400 ,0.000001901620 ,0.000009501090 ,0.000004078960 ,0.000051214100 ,0.000005336550
4.439120000000 ,0.000059818900 ,0.000012524500 ,0.000020596300 ,0.000048318200 ,0.000002504270 ,0.000008043900 ,0.000005253940 ,0.000045897100 ,0.000002661230
4.449440000000 ,0.000054995900 ,0.000012076000 ,0.000040634300 ,0.000042018700 ,0.000003242860 ,0.000004973800 ,0.000007572120 ,0.000034462300 ,0.000003198290
4.459760000000 ,0.000060197600 ,0.000011666200 ,0.000056475200 ,0.000025671500 ,0.000003021090 ,0.000005249650 ,0.000006525010 ,0.000024523600 ,0.000003182940
4.470090000000 ,0.000062501900 ,0.000008760990 ,0.000049263200 ,0.000028329900 ,0.000001411510 ,0.000009712220 ,0.000003167450 ,0.000025469700 ,0.000002563710
,,,0.000026750400 ,0.000032833500 ,,,0.000003996920 ,0.000051188200 ,0.000001655570
,,,0.000005728570 ,0.000030690200 ,,,0.000005574500 ,0.000061724400 ,0.000001711090
,,,0.000007059040 ,0.000028189700 ,,,0.000007232450 ,0.000041825100 ,0.000008096320
,,,0.000005463180 ,0.000018568800 ,,,0.000006252490 ,0.000015735400 ,0.000009196340
,,,0.000002965370 ,0.000016400700 ,,,0.000003916160 ,0.000025606300 ,0.000013002200
,,,0.000003779990 ,0.000013618300 ,,,0.000003387120 ,0.000045254700 ,0.000018323000
,,,0.000014760300 ,0.000007093620 ,,,0.000002769390 ,0.000059928800 ,0.000016072400
,,,0.000056341900 ,0.000011418700 ,,,0.000003191200 ,0.000055552200 ,0.000009056250
,,,0.000062562500 ,0.000040941000 ,,,0.000003207630 ,0.000040613000 ,0.000007671960
,,,0.000059216400 ,0.000060861300 ,,,0.000003298620 ,0.000038039900 ,0.000008749010
,,,0.000051907400 ,0.000050134500 ,,,0.000003545800 ,0.000030057800 ,0.000009194340
,,,0.000013173200 ,0.000028164600 ,,,0.000002264960 ,0.000016729400 ,0.000011310500
,,,0.000008682710 ,0.000021242700 ,,,0.000001612210 ,0.000015553400 ,0.000009452330
,,,0.000007818240 ,0.000017106400 ,,,0.000002190850 ,0.000021777700 ,0.000015762500
,,,0.000007998320 ,0.000018321200 ,,,0.000002861460 ,0.000025007300 ,0.000021528400
,,,0.000014936100 ,0.000027637300 ,,,0.000006880010 ,0.000024125400 ,0.000018399200
,,,0.000024469000 ,0.000044608400 ,,,0.000007737190 ,0.000019927700 ,0.000018505700
,,,0.000045933400 ,0.000045333000 ,,,0.000004575550 ,0.000012348400 ,0.000019590200
,,,0.000046584100 ,0.000041915800 ,,,0.000002392080 ,0.000011423900 ,0.000014997000
,,,0.000022269200 ,0.000046998700 ,,,0.000002758430 ,0.000007214320 ,0.000010932300
